ENLIGHTEN Version,2.1.14
Measurement ID,20200528-135733-845197-WP-00413
Serial Number,WP-00413
Model,WP-785-C-ER2-S
Label,13:57:33 WP-00413
Declared Match,
Declared Score,0
Scan Averaging,1
Boxcar,0
Technique,Raman
Baseline Correction Algo,
ROI Pixel Start,10
ROI Pixel End,950
Slit Width,25
Vignetted,False
Interpolated,False
Raman Intensity Corrected,False
Integration Time,8
Timestamp,2020-05-28 13:57:33.845197
Note,
Temperature,-15.118761658262883
CCD C0,792.331787109375
CCD C1,0.27772772312164307
CCD C2,1.696601430012379e-05
CCD C3,-2.4665144593427613e-08
CCD Offset,300
CCD Gain,1.9
Laser Wavelength,785.0
Laser Enable,False
Laser Power,100
Laser Temperature,0
Pixel Count,1024

Wavelength,Processed
792.33,1133.00
792.61,1141.00
792.89,1148.00
793.17,1148.00
793.44,1161.00
793.72,1152.00
794.00,1131.00
794.28,1150.00
794.55,1161.00
794.83,1180.00
795.11,1159.00
795.39,1156.00
795.67,1144.00
795.95,1158.00
796.22,1161.00
796.50,1152.00
796.78,1165.00
797.06,1171.00
797.34,1182.00
797.61,1175.00
797.89,1178.00
798.17,1169.00
798.45,1188.00
798.73,1169.00
799.01,1173.00
799.29,1177.00
799.56,1148.00
799.84,1161.00
800.12,1188.00
800.40,1182.00
800.68,1175.00
800.96,1175.00
801.24,1173.00
801.51,1182.00
801.79,1186.00
802.07,1177.00
802.35,1188.00
802.63,1180.00
802.91,1194.00
803.19,1196.00
803.47,1194.00
803.75,1201.00
804.02,1190.00
804.30,1177.00
804.58,1194.00
804.86,1186.00
805.14,1186.00
805.42,1211.00
805.70,1196.00
805.98,1201.00
806.26,1211.00
806.54,1215.00
806.82,1224.00
807.10,1201.00
807.37,1213.00
807.65,1205.00
807.93,1201.00
808.21,1199.00
808.49,1213.00
808.77,1190.00
809.05,1192.00
809.33,1186.00
809.61,1201.00
809.89,1211.00
810.17,1199.00
810.45,1197.00
810.73,1192.00
811.01,1194.00
811.29,1207.00
811.57,1199.00
811.85,1180.00
812.13,1190.00
812.41,1190.00
812.69,1184.00
812.97,1156.00
813.25,1152.00
813.53,1141.00
813.81,1158.00
814.09,1144.00
814.37,1131.00
814.65,1125.00
814.93,1129.00
815.21,1129.00
815.49,1139.00
815.77,1097.00
816.05,1093.00
816.33,1108.00
816.61,1131.00
816.89,1144.00
817.17,1144.00
817.45,1106.00
817.73,1106.00
818.01,1148.00
818.29,1133.00
818.57,1137.00
818.85,1125.00
819.13,1131.00
819.41,1131.00
819.69,1152.00
819.97,1180.00
820.25,1213.00
820.53,1218.00
820.81,1182.00
821.09,1188.00
821.37,1186.00
821.65,1169.00
821.93,1159.00
822.21,1085.00
822.49,1034.00
822.77,1066.00
823.05,1142.00
823.33,1177.00
823.62,1182.00
823.90,1186.00
824.18,1199.00
824.46,1237.00
824.74,1209.00
825.02,1218.00
825.30,1194.00
825.58,1197.00
825.86,1207.00
826.14,1237.00
826.42,1251.00
826.70,1209.00
826.98,1169.00
827.26,1163.00
827.55,1163.00
827.83,1186.00
828.11,1190.00
828.39,1175.00
828.67,1180.00
828.95,1175.00
829.23,1188.00
829.51,1220.00
829.79,1194.00
830.07,1188.00
830.35,1205.00
830.64,1228.00
830.92,1215.00
831.20,1203.00
831.48,1213.00
831.76,1192.00
832.04,1213.00
832.32,1211.00
832.60,1213.00
832.88,1194.00
833.16,1199.00
833.45,1196.00
833.73,1216.00
834.01,1232.00
834.29,1230.00
834.57,1249.00
834.85,1235.00
835.13,1249.00
835.41,1241.00
835.70,1256.00
835.98,1241.00
836.26,1245.00
836.54,1264.00
836.82,1264.00
837.10,1254.00
837.38,1251.00
837.66,1249.00
837.95,1266.00
838.23,1235.00
838.51,1245.00
838.79,1260.00
839.07,1258.00
839.35,1264.00
839.63,1273.00
839.91,1266.00
840.20,1268.00
840.48,1272.00
840.76,1251.00
841.04,1268.00
841.32,1268.00
841.60,1281.00
841.88,1260.00
842.17,1277.00
842.45,1281.00
842.73,1270.00
843.01,1249.00
843.29,1262.00
843.57,1256.00
843.85,1251.00
844.14,1264.00
844.42,1270.00
844.70,1294.00
844.98,1277.00
845.26,1279.00
845.54,1283.00
845.82,1294.00
846.11,1285.00
846.39,1277.00
846.67,1279.00
846.95,1270.00
847.23,1268.00
847.51,1287.00
847.80,1287.00
848.08,1264.00
848.36,1260.00
848.64,1275.00
848.92,1266.00
849.20,1224.00
849.48,1201.00
849.77,1196.00
850.05,1272.00
850.33,1262.00
850.61,1285.00
850.89,1270.00
851.17,1270.00
851.46,1272.00
851.74,1273.00
852.02,1275.00
852.30,1281.00
852.58,1275.00
852.86,1249.00
853.15,1235.00
853.43,1184.00
853.71,1127.00
853.99,1118.00
854.27,1192.00
854.55,1237.00
854.84,1264.00
855.12,1254.00
855.40,1268.00
855.68,1283.00
855.96,1289.00
856.24,1289.00
856.52,1270.00
856.81,1302.00
857.09,1277.00
857.37,1273.00
857.65,1270.00
857.93,1289.00
858.21,1283.00
858.50,1256.00
858.78,1287.00
859.06,1266.00
859.34,1254.00
859.62,1264.00
859.90,1279.00
860.19,1277.00
860.47,1281.00
860.75,1289.00
861.03,1275.00
861.31,1277.00
861.59,1283.00
861.88,1289.00
862.16,1279.00
862.44,1285.00
862.72,1268.00
863.00,1258.00
863.28,1272.00
863.57,1283.00
863.85,1273.00
864.13,1260.00
864.41,1251.00
864.69,1266.00
864.97,1264.00
865.25,1253.00
865.54,1167.00
865.82,1129.00
866.10,1167.00
866.38,1216.00
866.66,1254.00
866.94,1258.00
867.23,1260.00
867.51,1272.00
867.79,1275.00
868.07,1266.00
868.35,1241.00
868.63,1222.00
868.91,1272.00
869.20,1253.00
869.48,1279.00
869.76,1266.00
870.04,1270.00
870.32,1281.00
870.60,1251.00
870.88,1262.00
871.17,1262.00
871.45,1272.00
871.73,1279.00
872.01,1290.00
872.29,1245.00
872.57,1268.00
872.85,1260.00
873.14,1256.00
873.42,1256.00
873.70,1232.00
873.98,1241.00
874.26,1256.00
874.54,1237.00
874.82,1254.00
875.10,1245.00
875.39,1262.00
875.67,1251.00
875.95,1262.00
876.23,1232.00
876.51,1264.00
876.79,1253.00
877.07,1247.00
877.35,1253.00
877.64,1268.00
877.92,1266.00
878.20,1260.00
878.48,1254.00
878.76,1243.00
879.04,1253.00
879.32,1245.00
879.60,1232.00
879.89,1234.00
880.17,1205.00
880.45,1199.00
880.73,1228.00
881.01,1249.00
881.29,1253.00
881.57,1247.00
881.85,1243.00
882.13,1239.00
882.41,1258.00
882.70,1241.00
882.98,1247.00
883.26,1245.00
883.54,1243.00
883.82,1241.00
884.10,1241.00
884.38,1237.00
884.66,1237.00
884.94,1241.00
885.22,1218.00
885.50,1218.00
885.79,1218.00
886.07,1209.00
886.35,1224.00
886.63,1224.00
886.91,1218.00
887.19,1215.00
887.47,1216.00
887.75,1232.00
888.03,1228.00
888.31,1230.00
888.59,1235.00
888.87,1232.00
889.15,1220.00
889.44,1222.00
889.72,1218.00
890.00,1228.00
890.28,1201.00
890.56,1218.00
890.84,1199.00
891.12,1194.00
891.40,1196.00
891.68,1190.00
891.96,1211.00
892.24,1171.00
892.52,1186.00
892.80,1169.00
893.08,1192.00
893.36,1201.00
893.64,1177.00
893.92,1159.00
894.20,1158.00
894.48,1161.00
894.76,1142.00
895.04,1133.00
895.32,1135.00
895.60,1123.00
895.88,1087.00
896.16,1093.00
896.44,1097.00
896.72,1082.00
897.00,1095.00
897.28,1099.00
897.56,1112.00
897.84,1080.00
898.12,1061.00
898.40,1010.00
898.68,1021.00
898.96,1085.00
899.24,1093.00
899.52,1068.00
899.80,1047.00
900.08,1049.00
900.36,1059.00
900.64,1072.00
900.92,1053.00
901.20,1055.00
901.48,1074.00
901.76,1057.00
902.04,1063.00
902.32,1080.00
902.60,1099.00
902.88,1110.00
903.16,1127.00
903.44,1141.00
903.72,1131.00
904.00,1129.00
904.28,1129.00
904.56,1156.00
904.84,1106.00
905.12,1133.00
905.40,1101.00
905.68,1099.00
905.96,1084.00
906.24,1076.00
906.51,1061.00
906.79,1044.00
907.07,1070.00
907.35,1042.00
907.63,1040.00
907.91,1044.00
908.19,1055.00
908.47,1034.00
908.75,1047.00
909.03,1038.00
909.31,1046.00
909.58,1051.00
909.86,1038.00
910.14,1029.00
910.42,1047.00
910.70,1080.00
910.98,1074.00
911.26,1049.00
911.54,1055.00
911.82,1068.00
912.09,1049.00
912.37,1027.00
912.65,1010.00
912.93,1000.00
913.21,992.00
913.49,1036.00
913.77,1068.00
914.04,1074.00
914.32,1055.00
914.60,1013.00
914.88,992.00
915.16,996.00
915.44,1013.00
915.72,1049.00
915.99,1057.00
916.27,1049.00
916.55,1027.00
916.83,996.00
917.11,998.00
917.38,1017.00
917.66,1042.00
917.94,1040.00
918.22,1042.00
918.50,1059.00
918.78,1053.00
919.05,1057.00
919.33,1087.00
919.61,1065.00
919.89,1070.00
920.16,1059.00
920.44,1074.00
920.72,1038.00
921.00,1046.00
921.28,1055.00
921.55,1049.00
921.83,1038.00
922.11,1065.00
922.39,1044.00
922.66,1038.00
922.94,1038.00
923.22,1034.00
923.50,1032.00
923.77,1029.00
924.05,1038.00
924.33,1017.00
924.61,1046.00
924.88,1040.00
925.16,1032.00
925.44,1023.00
925.71,1040.00
925.99,1042.00
926.27,1046.00
926.55,1030.00
926.82,1038.00
927.10,992.00
927.38,981.00
927.65,977.00
927.93,958.00
928.21,949.00
928.48,951.00
928.76,949.00
929.04,943.00
929.31,913.00
929.59,890.00
929.87,911.00
930.14,899.00
930.42,888.00
930.70,877.00
930.97,867.00
931.25,844.00
931.53,827.00
931.80,812.00
932.08,839.00
932.35,816.00
932.63,831.00
932.91,803.00
933.18,787.00
933.46,780.00
933.73,765.00
934.01,774.00
934.29,806.00
934.56,827.00
934.84,814.00
935.11,793.00
935.39,793.00
935.67,804.00
935.94,803.00
936.22,808.00
936.49,795.00
936.77,797.00
937.04,791.00
937.32,795.00
937.59,799.00
937.87,820.00
938.15,841.00
938.42,875.00
938.70,892.00
938.97,901.00
939.25,886.00
939.52,896.00
939.80,877.00
940.07,867.00
940.35,852.00
940.62,865.00
940.90,858.00
941.17,865.00
941.45,860.00
941.72,860.00
942.00,835.00
942.27,806.00
942.54,822.00
942.82,833.00
943.09,837.00
943.37,810.00
943.64,793.00
943.92,801.00
944.19,818.00
944.47,841.00
944.74,837.00
945.01,816.00
945.29,825.00
945.56,808.00
945.84,812.00
946.11,823.00
946.38,841.00
946.66,823.00
946.93,842.00
947.21,829.00
947.48,810.00
947.75,814.00
948.03,831.00
948.30,875.00
948.57,852.00
948.85,842.00
949.12,804.00
949.40,803.00
949.67,816.00
949.94,825.00
950.22,860.00
950.49,875.00
950.76,860.00
951.03,842.00
951.31,827.00
951.58,793.00
951.85,803.00
952.13,820.00
952.40,827.00
952.67,837.00
952.95,852.00
953.22,841.00
953.49,841.00
953.76,835.00
954.04,827.00
954.31,823.00
954.58,823.00
954.85,816.00
955.13,816.00
955.40,812.00
955.67,825.00
955.94,814.00
956.22,812.00
956.49,827.00
956.76,839.00
957.03,877.00
957.30,850.00
957.58,850.00
957.85,835.00
958.12,831.00
958.39,818.00
958.66,812.00
958.93,814.00
959.21,823.00
959.48,831.00
959.75,844.00
960.02,848.00
960.29,833.00
960.56,844.00
960.83,844.00
961.11,860.00
961.38,841.00
961.65,844.00
961.92,831.00
962.19,833.00
962.46,848.00
962.73,860.00
963.00,858.00
963.27,850.00
963.54,835.00
963.81,837.00
964.08,839.00
964.36,837.00
964.63,863.00
964.90,860.00
965.17,858.00
965.44,842.00
965.71,842.00
965.98,839.00
966.25,850.00
966.52,856.00
966.79,863.00
967.06,875.00
967.33,879.00
967.60,879.00
967.87,879.00
968.14,871.00
968.41,879.00
968.68,880.00
968.95,873.00
969.21,873.00
969.48,884.00
969.75,865.00
970.02,871.00
970.29,896.00
970.56,880.00
970.83,886.00
971.10,877.00
971.37,869.00
971.64,884.00
971.91,852.00
972.17,856.00
972.44,867.00
972.71,867.00
972.98,856.00
973.25,844.00
973.52,852.00
973.79,850.00
974.05,842.00
974.32,856.00
974.59,865.00
974.86,856.00
975.13,831.00
975.40,844.00
975.66,854.00
975.93,852.00
976.20,841.00
976.47,877.00
976.73,860.00
977.00,879.00
977.27,852.00
977.54,863.00
977.81,850.00
978.07,856.00
978.34,848.00
978.61,865.00
978.87,850.00
979.14,842.00
979.41,852.00
979.68,852.00
979.94,846.00
980.21,860.00
980.48,875.00
980.74,858.00
981.01,852.00
981.28,854.00
981.54,858.00
981.81,867.00
982.08,867.00
982.34,863.00
982.61,865.00
982.87,867.00
983.14,871.00
983.41,858.00
983.67,854.00
983.94,873.00
984.20,848.00
984.47,856.00
984.74,861.00
985.00,867.00
985.27,856.00
985.53,856.00
985.80,852.00
986.06,867.00
986.33,867.00
986.59,854.00
986.86,854.00
987.12,856.00
987.39,867.00
987.65,852.00
987.92,860.00
988.18,848.00
988.45,842.00
988.71,860.00
988.98,850.00
989.24,856.00
989.51,854.00
989.77,848.00
990.04,844.00
990.30,850.00
990.56,852.00
990.83,854.00
991.09,848.00
991.36,850.00
991.62,850.00
991.88,841.00
992.15,846.00
992.41,854.00
992.68,846.00
992.94,825.00
993.20,852.00
993.47,848.00
993.73,841.00
993.99,841.00
994.26,844.00
994.52,850.00
994.78,848.00
995.05,844.00
995.31,831.00
995.57,839.00
995.83,850.00
996.10,841.00
996.36,841.00
996.62,842.00
996.88,837.00
997.15,837.00
997.41,837.00
997.67,823.00
997.93,833.00
998.19,825.00
998.46,835.00
998.72,822.00
998.98,823.00
999.24,835.00
999.50,823.00
999.77,818.00
1000.03,841.00
1000.29,827.00
1000.55,823.00
1000.81,816.00
1001.07,820.00
1001.33,816.00
1001.59,822.00
1001.86,810.00
1002.12,831.00
1002.38,825.00
1002.64,820.00
1002.90,812.00
1003.16,810.00
1003.42,810.00
1003.68,801.00
1003.94,816.00
1004.20,818.00
1004.46,799.00
1004.72,795.00
1004.98,803.00
1005.24,804.00
1005.50,801.00
1005.76,812.00
1006.02,801.00
1006.28,810.00
1006.54,801.00
1006.80,808.00
1007.06,825.00
1007.32,801.00
1007.58,799.00
1007.84,797.00
1008.09,808.00
1008.35,795.00
1008.61,799.00
1008.87,810.00
1009.13,799.00
1009.39,784.00
1009.65,806.00
1009.91,806.00
1010.16,791.00
1010.42,801.00
1010.68,803.00
1010.94,795.00
1011.20,791.00
1011.46,797.00
1011.71,784.00
1011.97,789.00
1012.23,799.00
1012.49,789.00
1012.74,797.00
1013.00,786.00
1013.26,804.00
1013.52,786.00
1013.77,797.00
1014.03,797.00
1014.29,789.00
1014.54,786.00
1014.80,786.00
1015.06,778.00
1015.31,786.00
1015.57,780.00
1015.83,789.00
1016.08,782.00
1016.34,776.00
1016.60,787.00
1016.85,786.00
1017.11,782.00
1017.37,778.00
1017.62,780.00
1017.88,776.00
1018.13,784.00
1018.39,770.00
1018.64,772.00
1018.90,763.00
1019.15,778.00
1019.41,768.00
1019.67,768.00
1019.92,761.00
1020.18,774.00
1020.43,770.00
1020.69,767.00
1020.94,759.00
1021.19,767.00
1021.45,768.00
1021.70,768.00
1021.96,765.00
1022.21,770.00
1022.47,770.00
1022.72,765.00
1022.98,761.00
1023.23,767.00
1023.48,757.00
1023.74,770.00
1023.99,755.00
1024.24,757.00
1024.50,767.00
1024.75,761.00
1025.00,763.00
1025.26,748.00
1025.51,748.00
1025.76,757.00
1026.02,763.00
1026.27,753.00
1026.52,767.00
1026.78,761.00
1027.03,755.00
1027.28,748.00
1027.53,740.00
1027.79,759.00
1028.04,748.00
1028.29,751.00
1028.54,753.00
1028.79,753.00
1029.05,742.00
1029.30,753.00
1029.55,753.00
1029.80,746.00
1030.05,749.00
1030.30,759.00
1030.55,751.00
1030.81,746.00
1031.06,730.00
1031.31,748.00
1031.56,742.00
1031.81,751.00
1032.06,738.00
1032.31,748.00
1032.56,742.00
1032.81,740.00
1033.06,742.00
1033.31,744.00
1033.56,732.00
1033.81,734.00
1034.06,738.00
1034.31,729.00
1034.56,732.00
1034.81,715.00
1035.06,736.00
1035.31,744.00
1035.56,732.00
1035.81,732.00
1036.06,729.00
1036.31,729.00
1036.56,729.00
1036.81,730.00
1037.05,727.00
1037.30,727.00
1037.55,719.00
1037.80,729.00
1038.05,730.00
1038.30,719.00
1038.54,734.00
1038.79,729.00
1039.04,715.00
1039.29,721.00
1039.54,721.00
1039.78,729.00
1040.03,711.00
1040.28,723.00
1040.53,721.00
1040.77,711.00
1041.02,710.00
1041.27,727.00
1041.52,710.00
1041.76,729.00
1042.01,708.00
1042.26,715.00
1042.50,710.00
1042.75,715.00
1042.99,725.00
1043.24,723.00
1043.49,715.00
1043.73,713.00
1043.98,713.00
1044.23,706.00
1044.47,717.00
1044.72,719.00
1044.96,715.00
1045.21,708.00
1045.45,711.00
1045.70,710.00
1045.94,715.00
1046.19,710.00
1046.43,721.00
1046.68,698.00
1046.92,702.00
1047.17,708.00
1047.41,713.00
1047.66,694.00
1047.90,710.00
1048.14,700.00
1048.39,706.00
1048.63,702.00
1048.88,700.00
1049.12,717.00
1049.36,702.00
1049.61,696.00
1049.85,706.00
1050.09,708.00
1050.34,702.00
1050.58,702.00
1050.82,696.00
1051.07,706.00
1051.31,692.00
1051.55,700.00
1051.79,702.00
1052.04,708.00
1052.28,700.00
1052.52,698.00
1052.76,691.00
1053.01,711.00
1053.25,689.00
1053.49,696.00
1053.73,700.00
1053.97,696.00
1054.21,692.00
1054.46,691.00
1054.70,704.00
1054.94,694.00
1055.18,689.00
1055.42,683.00
1055.66,696.00
1055.90,692.00
1056.14,691.00
1056.38,694.00
1056.62,687.00
1056.86,681.00
1057.10,687.00
1057.34,694.00
1057.58,698.00
1057.82,677.00
1058.06,687.00
1058.30,687.00
1058.54,696.00
1058.78,681.00
1059.02,696.00
1059.26,687.00
1059.50,692.00
1059.74,685.00
1059.98,685.00
1060.22,689.00
1060.46,679.00
1060.69,673.00
1060.93,679.00
1061.17,694.00
1061.41,681.00
1061.65,679.00
1061.88,679.00
1062.12,687.00
1062.36,672.00
1062.60,681.00
1062.84,681.00
1063.07,681.00
1063.31,679.00
1063.55,685.00
1063.78,681.00
1064.02,691.00
1064.26,681.00
1064.49,692.00
1064.73,679.00
1064.97,681.00
1065.20,677.00
1065.44,675.00
1065.68,673.00
1065.91,683.00
1066.15,668.00
1066.38,675.00
1066.62,681.00
1066.86,673.00
1067.09,691.00
1067.33,668.00
1067.56,679.00
1067.80,672.00
